r(cm),T_mean(K),T_rms(K),uz_mean(m/s),ur_mean(m/s),uz_rms(m/s),ur_rms(m/s),uz'T'(K-m/s),ur'T'(K-m/s),uz'ur'(m/s)^2
-20.0,303.773,73.5906244,0.0645813,0.14624585,0.14711118,0.18465259,10.82600377,13.5886996,0.05914153
-19.7496,305.678,79.60389438,0.067062,0.14754241,0.15161959,0.19245072,12.06950981,15.31982645,0.06092044
-19.0312,314.198,104.76402054,0.0788326,0.1500302,0.16788359,0.21811527,17.58815994,22.85063238,0.06151505
-18.8694,316.753,111.78685075,0.0826301,0.15021449,0.1718735,0.22449073,19.21319729,25.09511226,0.06085949
-18.3221,325.397,132.81603819,0.095474,0.15084043,0.18473034,0.24482667,24.53515243,32.5169088,0.05858787
-17.6223,339.159,160.52756773,0.11851,0.15038595,0.20039187,0.27162772,32.16841886,43.60373773,0.04673662
-16.9317,356.249,189.42597499,0.150458,0.14858501,0.21743298,0.29741005,41.18745389,56.33718938,0.01699453
-16.25,374.891,217.45666235,0.1897,0.14464509,0.23871573,0.3193964,51.91032601,69.454875,0.05987758
-16.0178,382.094,226.88653552,0.207416,0.14241548,0.250013,0.32742303,56.72458333,74.28787673,0.07426871
-15.75,390.401,237.2970712,0.227849,0.13984297,0.26243914,0.33644248,62.27603829,79.8368143,0.08799028
-15.25,403.884,251.63008564,0.269017,0.13429769,0.2903057,0.35237404,73.04964839,88.66790984,0.11514273
-14.5638,418.918,266.97752714,0.32227,0.12742444,0.32416817,0.37157732,86.5456154,99.20279327,0.14477486
-13.8775,435.542,283.39883557,0.381945,0.11993195,0.35871158,0.39233915,101.65844501,111.18845875,0.1762532
-13.591,443.398,290.73974616,0.409038,0.11664793,0.37386094,0.39965199,108.69623384,116.194717,0.18977355
-13.1912,454.361,300.68372088,0.446845,0.11207641,0.39402792,0.40963987,118.47778045,123.1720392,0.20717065
-12.505,474.92,319.4119597,0.519101,0.10436907,0.43377298,0.42208362,138.55227828,134.81855536,0.23414602
-11.8188,494.686,337.58702582,0.593491,0.09793812,0.47129609,0.43144404,159.10344371,145.64991041,0.25304336
-11.1325,512.993,354.09603217,0.666745,0.09386759,0.50380353,0.44070323,178.39483208,156.05126393,0.26716511
-10.4462,530.618,369.2275721,0.740794,0.0918658,0.5378206,0.44814274,198.57819512,165.46665691,0.28438063
-9.76,548.013,382.36500886,0.811119,0.09097929,0.56858772,0.4491244,217.40805016,171.7294566,0.29676779
-9.07375,565.724,394.72522088,0.876255,0.09068328,0.59779679,0.44361544,235.96546927,175.10620316,0.29771765
-8.3875,583.19,405.6920014,0.939719,0.09023281,0.63128599,0.43783287,256.10767636,177.62529236,0.29240241
-7.69596,602.421,416.66413333,1.00638,0.08848329,0.67650203,0.43654024,281.87413307,181.89066022,0.28987042
-7.00248,624.893,430.95127335,1.07767,0.08426961,0.73355436,0.43563088,316.12618578,187.73568066,0.29531229
-6.30725,648.597,442.73807155,1.15141,0.07802346,0.79025755,0.43184926,349.87710502,191.19610685,0.29945626
-5.61044,681.946,453.02980034,1.24091,0.07151485,0.85227519,0.42552419,386.1060593,192.77514082,0.29749379
-4.91222,737.205,466.89720496,1.36755,0.06115684,0.92625213,0.4140493,432.46452849,193.31846042,0.29530784
-4.21277,818.477,473.61798952,1.53847,0.04507532,0.98797065,0.40052444,467.9206717,189.69557941,0.28933136
-3.51225,917.505,461.63622042,1.72526,0.02764119,1.01947045,0.38907666,470.62448572,179.61188058,0.26620627
-2.81086,1010.89,433.77644012,1.87871,0.01503042,1.02556814,0.37573937,444.8672948,162.98688508,0.22549184
-2.25242,1067.28,407.04299527,1.9596,0.01363555,1.01673497,0.36628574,413.85484774,149.09404289,0.18079479
-2.10876,1081.78,399.87748124,1.98041,0.01343288,1.01444566,0.36381402,405.65397595,145.48103332,0.16737778
-1.94347,1094.84,392.40922517,1.99902,0.01396876,1.00961379,0.36309395,396.18176409,142.48141746,0.15268081
-1.40614,1137.31,367.08173477,2.0595,0.01577393,0.99373689,0.36074359,364.78266027,132.42238398,0.08955657
-0.703157,1180.28,343.4996361,2.1267,0.01288893,0.96765593,0.36339565,332.38946003,124.82627427,0.05216771
-0.109768,1187.97,340.47026302,2.14091,0.0112771,0.9559728,0.36639102,325.48031166,124.74524716,0.08698511
0.0,1189.39,339.90734031,2.14354,0.01189813,0.9537961,0.36694239,324.20229549,124.72641296,0.09199261
0.703157,1157.19,354.80417134,2.09,-0.01842177,0.97329132,0.37037916,345.32782143,131.41206991,0.10218077
1.40614,1102.46,380.24991782,2.00016,-0.0194732,1.01096489,0.37299386,384.41931468,141.83088349,0.11762478
1.97198,1057.12,405.91132036,1.93134,-0.01597272,1.03391005,0.37736473,419.6757952,153.17661396,0.15180283
2.10876,1046.16,411.87376707,1.91471,-0.01544826,1.03937962,0.37841372,428.0932006,155.85868574,0.15896541
2.2357,1034.8,417.56197145,1.89746,-0.01533826,1.04163813,0.380207,434.94847233,158.75998291,0.16908252
2.81086,983.337,442.42174449,1.81934,-0.01496231,1.05179371,0.38822872,465.33640626,171.76082698,0.20887077
3.51225,899.742,465.10966449,1.68407,-0.02226393,1.04347976,0.40014113,485.33251895,186.10950445,0.25216205
4.21277,807.11,471.31412031,1.52033,-0.03710808,1.00288584,0.41192754,472.67425555,194.14726717,0.27489834
4.91222,726.609,461.29166478,1.35829,-0.05487618,0.93322398,0.41964502,430.48844413,193.57874835,0.28192958
5.61044,670.903,445.63886725,1.2265,-0.07059469,0.85547238,0.42716451,381.23174422,190.36110909,0.28565717
6.30725,636.013,429.58584707,1.12966,-0.08217173,0.78253307,0.43851755,336.16513018,188.38093334,0.29135187
7.00248,612.251,415.62603383,1.0528,-0.08878877,0.71646493,0.44664426,297.78147842,185.63698093,0.2968316
7.69596,593.895,406.14036982,0.987144,-0.09097212,0.66653432,0.446462,270.7064953,181.32624295,0.29720102
8.3875,575.457,397.99371854,0.928574,-0.08959902,0.63050456,0.44253624,250.93685434,176.12664208,0.29706124
9.07375,555.633,386.56564772,0.871476,-0.08773534,0.59852485,0.43838752,231.36914759,169.46555664,0.29609304
9.76,535.483,372.60300589,0.807844,-0.08688915,0.56972011,0.43486704,212.27942428,162.03276521,0.29137598
10.4462,515.687,358.88020285,0.735833,-0.08673528,0.54222689,0.43358743,194.5944962,155.60594506,0.28451833
11.1325,496.758,345.22311626,0.660189,-0.0885873,0.51243829,0.43232798,176.90554301,149.24961159,0.27308663
11.8188,479.2,330.06514509,0.585784,-0.09282201,0.47775307,0.42837989,157.68963778,141.39327125,0.25704046
12.505,462.547,313.33049644,0.513079,-0.09818155,0.44000114,0.42218497,137.86577449,132.28342665,0.23569629
13.1912,446.292,295.84455378,0.441435,-0.10384354,0.40097257,0.41460922,118.62555035,122.65987993,0.20984394
13.7237,433.491,281.67800766,0.387559,-0.10839992,0.37294906,0.40848552,105.05154767,115.06138666,0.19205556
13.8775,429.792,277.45017571,0.371992,-0.10971792,0.36445027,0.40669794,101.11679171,112.83841409,0.18660054
14.5638,412.401,258.46469778,0.306907,-0.11670071,0.32867309,0.39636196,84.95039084,102.44557312,0.16500783
15.25,395.625,240.81009115,0.249493,-0.1256264,0.29128886,0.38049859,70.14529694,91.62790109,0.13852094
15.75,381.025,223.90288073,0.206,-0.13353173,0.26004653,0.36281353,58.22516815,81.23499529,0.11250911
15.9562,374.695,215.20989754,0.190675,-0.13632922,0.24984055,0.35324125,53.76815898,76.02101301,0.1019749
16.25,365.679,202.18234344,0.168847,-0.14031693,0.23453699,0.33913906,47.4192384,68.5679293,0.08473748
16.9317,348.7,174.04798189,0.133134,-0.14614144,0.21281424,0.30340432,37.03988868,52.80690919,0.03951576
17.6223,333.232,145.3475146,0.105062,-0.14948504,0.19699518,0.26442265,28.63275945,38.43317503,0.04493894
18.3221,320.556,119.13018089,0.0857076,-0.15040733,0.18212798,0.23158975,21.69693884,27.58932822,0.0543973
19.0312,310.817,94.44109275,0.072268,-0.14996185,0.16471066,0.20479766,15.55545428,19.34131445,0.05700989
19.6989,303.933,70.80127118,0.0635794,-0.14843113,0.14867717,0.18315137,10.52653242,12.96734975,0.0569155
19.7496,303.41,68.67255638,0.062919,-0.148315,0.14738691,0.18140044,10.1214356,12.45723201,0.05690832
20.4775,298.012,42.77230412,0.056919,-0.14514475,0.13334167,0.1609151,5.70333031,6.88270941,0.05139829
