r(cm),T_mean(K),T_rms(K),uz_mean(m/s),ur_mean(m/s),uz_rms(m/s),ur_rms(m/s),uz'T'(K-m/s),ur'T'(K-m/s),uz'ur'(m/s)^2
-20.0,293.413,5.18108097,0.065592,0.15088038,0.09878117,0.11813357,0.51179325,0.61205957,0.03494496
-19.7496,293.623,7.24454277,0.0661054,0.15326239,0.10216947,0.12280133,0.74017107,0.88963946,0.0366947
-19.3216,294.476,16.28695797,0.0673525,0.15743552,0.10822015,0.13176901,1.76257697,2.14611639,0.04116885
-19.0312,295.295,22.84011821,0.0684154,0.16016568,0.11223814,0.1380715,2.56353238,3.15356927,0.04452029
-18.3221,299.462,50.40049603,0.0726544,0.16657386,0.12305934,0.15512496,6.20225154,7.81837506,0.05469268
-17.6223,307.062,86.86288045,0.0797869,0.17169328,0.13627215,0.17359809,11.83699184,15.07922992,0.06275375
-16.9317,318.268,125.2158137,0.0914217,0.17490308,0.15118333,0.19515596,18.93054399,24.43661274,0.06260014
-16.25,333.126,163.50107033,0.10836,0.1765015,0.16643948,0.21821511,27.21303288,35.67840396,0.0517192
-15.9708,341.82,182.20153677,0.118901,0.17670002,0.17445257,0.2287574,31.78552678,41.6799506,0.04315402
-15.75,348.688,195.38961078,0.127791,0.1766436,0.18087371,0.23713218,35.34084435,46.33316403,0.03497976
-15.25,364.827,219.92544191,0.152754,0.17541637,0.19864843,0.25397911,43.68784445,55.85646873,0.02089466
-14.5638,384.626,244.29735979,0.19054,0.17228106,0.22578618,0.27254778,55.15896815,66.582702,0.06403889
-13.8775,405.422,268.86037268,0.239716,0.16672174,0.25989325,0.29086772,69.87499533,78.20280335,0.10403307
-13.6672,411.395,275.68659743,0.258332,0.16439856,0.27332636,0.29604104,75.35241464,81.61454824,0.11844087
-13.1912,424.739,290.17201795,0.300879,0.15883633,0.30190578,0.30762965,87.60460941,89.26551559,0.14673417
-12.505,444.535,308.95064331,0.373457,0.15055423,0.35202557,0.3215421,108.75852546,99.34063765,0.19058111
-11.8188,468.099,328.88599849,0.453342,0.1432396,0.40130163,0.3331011,131.982488,109.55228845,0.22687786
-11.1325,496.789,352.67123501,0.539026,0.13708705,0.44662736,0.34481204,157.51262315,121.60528752,0.25395969
-10.4462,530.726,378.42436497,0.629626,0.13350468,0.48962128,0.35642104,185.2846228,134.87840691,0.27364548
-9.76,567.536,401.7835238,0.717964,0.13443577,0.52730731,0.36360492,211.86338945,146.09046722,0.28183875
-9.07375,600.664,419.85592767,0.794563,0.1409026,0.55715976,0.36705877,233.92682859,154.11180003,0.27612114
-8.3875,625.149,432.20134197,0.857984,0.15015068,0.58816834,0.37039668,254.20714726,160.08594183,0.26389393
-7.69596,642.775,438.79266174,0.908152,0.15712148,0.62682055,0.37202005,275.0442569,163.23966938,0.25230765
-7.00248,656.641,439.67601709,0.945401,0.15943897,0.67155938,0.37008177,295.26855315,162.71608072,0.23566311
-6.30725,670.796,440.55987107,0.981874,0.15742143,0.72523927,0.36223887,319.51131967,159.58791051,0.21054114
-5.61044,689.611,444.48284556,1.02687,0.15018379,0.78590521,0.35107418,349.32138434,156.04645062,0.18789148
-4.91222,721.145,444.73250387,1.08663,0.13862466,0.84068068,0.340885,373.87802226,151.60263748,0.17405785
-4.21277,786.157,437.2836608,1.18892,0.12604921,0.87319356,0.32873646,381.8332782,143.75108258,0.16657797
-3.51225,884.445,420.95724248,1.32969,0.11008287,0.87835187,0.31352875,369.74857932,131.9822,0.15903443
-2.81086,981.082,392.32639473,1.45666,0.09098209,0.85887135,0.30270663,336.95790123,118.75980091,0.13758778
-2.22796,1041.51,359.60116796,1.53162,0.07591701,0.82670188,0.29965437,297.28296195,107.75606056,0.10584087
-2.10876,1053.97,352.63295365,1.54731,0.07301912,0.82005183,0.29893357,289.17729812,105.41382816,0.09718853
-1.961,1064.55,343.7324541,1.56096,0.0694122,0.80974749,0.29872887,278.33649245,102.68280888,0.0918631
-1.40614,1104.8,308.32855852,1.61315,0.05689364,0.76984544,0.29778116,237.3653345,91.81443621,0.06431407
-0.703157,1133.96,274.29783083,1.65669,0.04149434,0.72217726,0.29576558,198.09165687,81.12785781,0.06790169
-0.0,1139.86,266.14995773,1.67143,0.02350693,0.69612858,0.29415537,185.27459216,78.28943852,0.08248988
0.103872,1137.94,267.61483516,1.66896,-0.02016855,0.69729764,0.29466371,186.60719323,78.85637928,0.08197658
0.703157,1126.62,276.19540184,1.65421,-0.00948066,0.70408735,0.29741355,194.46568927,82.14425508,0.076879
1.40614,1099.05,299.00652167,1.6134,-0.02668444,0.73999865,0.30302667,221.26442197,90.60695129,0.02654374
1.93725,1070.73,326.52411856,1.57606,-0.03997928,0.76906957,0.30623847,251.11976271,99.99424515,0.08983847
2.10876,1061.26,335.02387975,1.56343,-0.04405131,0.77831485,0.30740335,260.75405948,102.98746428,0.10362789
2.2497,1049.91,344.49092876,1.54955,-0.04731542,0.78594402,0.30838943,270.75058484,106.23736086,0.11532537
2.81086,1004.15,379.77888304,1.49295,-0.05968254,0.81525824,0.31266701,309.61786426,118.74432834,0.15488425
3.51225,921.829,422.84985515,1.38472,-0.07747144,0.8524283,0.32272462,360.44918153,136.46405859,0.19330618
4.21277,831.113,448.35588543,1.25426,-0.09784295,0.8706176,0.3337191,390.34652352,149.62492411,0.21725708
4.91222,753.294,455.28013354,1.13111,-0.11947321,0.85816898,0.34199902,390.70728829,155.70535838,0.22247544
5.61044,699.266,451.48864881,1.03583,-0.13923114,0.81621198,0.34907594,368.51044501,157.60382455,0.21327466
6.30725,666.649,443.54819355,0.970451,-0.15298387,0.75691875,0.35437584,335.72994595,157.18276368,0.21009188
7.00248,646.084,435.88530602,0.920302,-0.15874061,0.69629591,0.3596378,303.5051576,156.7608313,0.22108409
7.69596,627.002,428.15768123,0.871872,-0.15694136,0.64067933,0.36312269,274.31177505,155.47376896,0.24552411
8.3875,603.15,417.53682472,0.819211,-0.15174948,0.59254114,0.36253895,247.4077452,151.37336279,0.26876028
9.07375,574.152,402.90693715,0.757439,-0.14616393,0.55223998,0.35868248,222.50132055,144.51565861,0.27920815
9.76,543.583,387.04004961,0.683953,-0.14089888,0.51603876,0.35179821,199.72766659,136.15999854,0.27781106
10.4462,514.707,369.04877726,0.606285,-0.138802,0.48099584,0.34525062,177.51092735,127.4143199,0.26762527
11.1325,485.992,344.45173827,0.528744,-0.14144011,0.4434456,0.33898232,152.74560769,116.76304974,0.25028352
11.8188,458.934,317.17975976,0.450418,-0.14793493,0.39891102,0.33193837,126.52650074,105.28413174,0.22510676
12.505,436.818,293.48884136,0.376013,-0.15538848,0.35338506,0.32497655,103.71457155,95.37699201,0.19661279
13.1912,418.065,273.35325131,0.309679,-0.16204126,0.31257351,0.31647694,85.4429856,86.51000157,0.16786763
13.5388,409.174,263.80371491,0.279158,-0.16576525,0.2914397,0.30993327,76.8828761,81.76154891,0.15091319
13.8775,400.282,253.69115081,0.249745,-0.16921066,0.26899033,0.30346464,68.24046749,76.98629386,0.13186467
14.5638,381.149,230.0686854,0.195887,-0.17545235,0.22482816,0.28479084,51.72591843,65.52145476,0.08148588
15.25,362.452,204.35948718,0.153598,-0.17951781,0.19276851,0.26383051,39.39407467,53.9162685,0.01772727
15.75,347.116,179.85688755,0.126151,-0.18151578,0.17433646,0.24492872,31.35561242,44.05211656,0.05440487
16.0292,338.564,163.71377462,0.113973,-0.18187131,0.16590178,0.23296478,27.16040632,38.13954323,0.06085943
16.25,331.796,149.67431309,0.104862,-0.18192047,0.15954184,0.22332689,23.87931592,33.42629892,0.06498708
16.9317,316.155,111.58270475,0.0866716,-0.17993051,0.14646843,0.19676417,16.3433432,21.95547812,0.06805602
17.6223,304.451,74.35912856,0.0752113,-0.17522605,0.13609996,0.17236255,10.12027467,12.81672905,0.06137167
18.3221,297.63,43.03510195,0.0694154,-0.16869498,0.12561529,0.15237379,5.40586663,6.55742146,0.05080391
18.6784,295.859,32.09470361,0.0678528,-0.1650695,0.11996333,0.1437217,3.85018745,4.61270525,0.04629725
19.0312,294.471,20.28556137,0.0665812,-0.16136916,0.11417311,0.13533038,2.31606571,2.74525267,0.04199613
19.7496,293.372,6.56933787,0.0650412,-0.15391405,0.10283385,0.12060531,0.67555028,0.79229705,0.03595875
20.4775,293.093,1.55361192,0.0639256,-0.14661708,0.09231419,0.1078402,0.14342043,0.16754182,0.03204358
