r(cm),T_mean(K),T_rms(K),uz_mean(m/s),ur_mean(m/s),uz_rms(m/s),ur_rms(m/s),uz'T'(K-m/s),ur'T'(K-m/s),uz'ur'(m/s)^2
-20.0,334.262,125.2098239,0.180244,0.11499481,0.28568059,0.31324926,35.77001647,39.2218849,0.09067982
-19.7496,337.193,129.97192004,0.190105,0.11394471,0.29361982,0.31983771,38.16233206,41.56992112,0.09387247
-19.0312,347.49,147.14958376,0.223598,0.1098947,0.31765705,0.34265405,46.74310236,50.42140126,0.10759326
-18.8694,350.188,151.46220651,0.232057,0.10872491,0.32342542,0.34861431,48.98672721,52.80189323,0.111594
-18.3221,359.182,165.02181674,0.261048,0.10469697,0.3428294,0.36745462,56.57433102,60.63802946,0.12353959
-17.6223,371.776,182.26848329,0.302833,0.09919325,0.37085037,0.39089536,67.59433522,71.24790382,0.13917791
-16.9317,384.76,198.01313088,0.351764,0.09312737,0.40090772,0.41330518,79.38499284,81.83985246,0.1549367
-16.25,397.894,213.1375143,0.405045,0.08598116,0.42840518,0.43383725,91.30921561,92.46699222,0.16985838
-16.0119,403.345,219.22180548,0.427536,0.08291677,0.43879608,0.44071694,96.19366894,96.61476399,0.17473483
-15.75,409.305,225.63089327,0.45241,0.0796507,0.44991888,0.4482059,101.51559915,101.12909839,0.18050759
-15.25,420.256,236.979113,0.501513,0.07433137,0.4709363,0.46003698,111.60206699,109.01915449,0.19154845
-14.5638,433.926,252.46286856,0.563551,0.06935327,0.49638695,0.47219649,125.31927226,119.21208008,0.20704874
-13.8775,448.556,270.75302399,0.630985,0.06508933,0.52486189,0.48025508,142.10794297,130.03051467,0.21985366
-13.5769,454.591,278.29480771,0.661413,0.06317614,0.53744302,0.48324292,149.56760197,134.48399558,0.22274555
-13.1912,462.353,287.89633551,0.700436,0.06051666,0.55321876,0.48718409,159.26965467,140.25851495,0.22664874
-12.505,475.035,301.42859851,0.773034,0.05589687,0.57617619,0.49859456,173.67598094,150.29066088,0.23025756
-11.8188,485.995,311.24459835,0.848906,0.05183842,0.59429033,0.51174838,184.96965602,159.27891764,0.23340756
-11.1325,495.807,319.3493385,0.928033,0.04888493,0.61102864,0.52276507,195.13159228,166.94467917,0.23992922
-10.4462,505.53,326.96788833,1.00818,0.04580481,0.62783597,0.53092205,205.28219997,173.59446058,0.25129367
-9.76,515.71,334.30674537,1.08623,0.04083891,0.64469683,0.53860843,215.52649831,180.06043099,0.26307761
-9.07375,525.819,341.07770376,1.16186,0.03524002,0.66315232,0.55104403,226.18647067,187.94883149,0.27496105
-8.3875,537.071,348.79220175,1.23946,0.02999395,0.68823542,0.56500122,240.05114915,197.06801995,0.28753892
-7.69596,550.186,357.85332191,1.32607,0.02526511,0.72327035,0.57579224,258.82469759,206.04916468,0.29740839
-7.00248,564.65,366.17891802,1.42278,0.0218758,0.76536789,0.58458939,280.26158416,214.06431191,0.30851985
-6.30725,582.765,375.82309668,1.52732,0.01981834,0.81280194,0.58770898,305.46974354,220.87460716,0.32719112
-5.61044,606.349,388.46235339,1.64453,0.01543676,0.87061587,0.58571213,338.2014913,227.52711268,0.35440024
-4.91222,634.707,398.97869617,1.77232,0.00828621,0.94237466,0.58496786,375.98741319,233.38971503,0.38177525
-4.21277,668.007,404.01608879,1.90465,0.00175488,1.02030388,0.58569412,412.21918148,236.62984683,0.40003182
-3.51225,709.124,406.15760488,2.04949,0.01184617,1.10249717,0.58438046,447.78760814,237.35056727,0.40921694
-2.81086,757.924,408.71261297,2.20104,0.01848502,1.18303423,0.5786001,483.52101321,236.48116025,0.39993087
-2.24471,800.813,410.8235631,2.31637,0.02161279,1.23253398,0.57281849,506.35399933,235.32733218,0.36914512
-2.10876,810.98,411.35386226,2.34393,0.02237626,1.24418648,0.57138392,511.80091442,235.04098088,0.36153744
-1.94254,821.869,411.95994951,2.37099,0.02261695,1.25361876,0.57028682,516.44072183,234.93533063,0.34941564
-1.40614,856.351,414.12920689,2.45743,0.02418718,1.28434808,0.56662478,531.88605326,234.65587027,0.30771872
-0.703157,884.55,414.69024585,2.52388,0.0277874,1.30931662,0.56598925,542.96082923,234.71022082,0.23977598
-0.0400844,893.968,413.08110584,2.54212,0.02604502,1.31612689,0.56646487,543.66715262,233.99593406,0.1176048
0.0,894.524,412.98910397,2.5432,0.0260054,1.31653333,0.56650847,543.71391889,233.96182666,0.10564611
0.703157,880.614,412.90676914,2.50683,0.01650451,1.30259357,0.56945401,537.84970112,235.13141656,0.2015839
1.40614,846.937,412.82684021,2.42282,0.01839288,1.2722657,0.57630103,525.22542699,237.91253424,0.30029988
1.95469,815.134,411.07663519,2.34082,0.02423383,1.2420789,0.58168574,510.58961588,239.1174167,0.3431803
2.10876,806.342,410.54232425,2.31796,0.02601693,1.23342207,0.58314969,506.37196294,239.40762878,0.35436955
2.23561,797.663,409.8182524,2.2939,0.02623878,1.22525916,0.5841988,502.13356616,239.415332,0.35946651
2.81086,758.812,406.27453772,2.18501,0.02691894,1.1876742,0.5887189,482.52178565,239.18149783,0.38242934
3.51225,705.646,400.10248687,2.02548,0.02066106,1.12445987,0.59251407,449.89919051,237.06635185,0.39597092
4.21277,657.495,391.17770898,1.86713,0.01178505,1.03441288,0.59715246,404.63925934,233.59273105,0.39707735
4.91222,621.003,383.07310007,1.72615,0.00458707,0.94445699,0.6032374,361.79606584,231.08402066,0.38591331
5.61044,594.895,374.98266627,1.60641,0.00327682,0.86868867,0.60458014,325.74319247,226.70707111,0.35454726
6.30725,575.603,366.03141942,1.50275,0.01117539,0.80181731,0.59953699,293.49032841,219.44937472,0.32246147
7.00248,562.383,359.77353988,1.4119,0.01549291,0.75606217,0.59403821,272.01116211,213.71923117,0.31264624
7.69596,551.718,354.83094566,1.32606,0.01701577,0.72543987,0.58865902,257.40851387,208.87443619,0.31104236
8.3875,540.096,348.54124577,1.23896,0.01915374,0.69864297,0.58262446,243.50589123,203.06865469,0.30618844
9.07375,527.977,340.63616954,1.15392,0.02206486,0.67454726,0.57521319,229.77519331,195.93841891,0.3004432
9.76,516.886,332.7341281,1.07461,0.02516358,0.65459835,0.56571695,217.80721129,188.23333625,0.29149552
10.4462,506.44,324.50577807,0.999163,0.0305241,0.63580736,0.55740407,206.32316231,180.88084282,0.27783425
11.1325,495.39,314.92062492,0.924055,0.03708774,0.61986853,0.55013659,195.20938624,173.24935921,0.26649171
11.8188,484.071,304.4429339,0.84889,0.04297341,0.60335645,0.54003919,183.68760637,164.41111409,0.25719821
12.505,472.887,293.51882393,0.775592,0.04851584,0.58004569,0.5274882,170.25432812,154.82771578,0.2495904
13.1912,461.663,282.76562733,0.705176,0.05464305,0.55226443,0.51535642,156.16139784,145.7250815,0.24215361
13.6291,454.402,275.79593906,0.660134,0.05861093,0.53369935,0.50709827,147.19211439,139.85564481,0.23299813
13.8775,450.214,271.89869437,0.63445,0.06092555,0.52273798,0.50216545,142.13177537,136.53812935,0.22742139
14.5638,438.604,261.35301797,0.563181,0.06753448,0.49167266,0.48524864,128.50013232,126.82119582,0.20968827
15.25,427.444,252.37412704,0.499422,0.07473917,0.46265862,0.46824896,116.76306571,118.17392237,0.19566765
15.75,416.982,243.34276237,0.450972,0.0810261,0.44045885,0.455934,107.18247367,110.94823786,0.18480141
15.9881,411.417,237.42493551,0.430021,0.08404997,0.43048693,0.44961346,102.20833245,106.74944584,0.18026922
16.25,405.205,230.57124712,0.407081,0.08734033,0.41935784,0.44299081,96.69186072,102.14094411,0.1752887
16.9317,391.658,213.55748641,0.361369,0.09477632,0.3931412,0.42250815,83.95824562,90.2297793,0.16384258
17.6223,378.536,196.19607539,0.317938,0.1018592,0.36236584,0.39734855,71.09475512,77.95822701,0.14990644
18.3221,366.408,179.53244832,0.277496,0.10799793,0.33137894,0.37196766,59.49327191,66.78026468,0.13105647
19.0312,354.971,161.9830238,0.240063,0.11309374,0.30455328,0.34881683,49.33246111,56.50240467,0.10707558
19.1307,353.484,159.62549922,0.235207,0.11365645,0.3014145,0.34592577,48.11343982,55.21857411,0.10417519
19.7496,344.186,144.01492978,0.20507,0.1171987,0.28150275,0.32759337,40.54059922,47.17833572,0.08437126
20.4775,334.651,127.60564251,0.173347,0.12067632,0.25902066,0.30479747,33.05249717,38.89387705,0.06409075
