z (m),T'/DT,u'/V,v'/V,w'/V
0,0.402575,0,0.0101857,0
0.0125,0.245467,0.518486,0.49129,0.5205
0.025,0.198361,0.23733,0.240693,0.252628
0.0375,0.176689,0.157616,0.180261,0.170083
0.05,0.162522,0.121656,0.161896,0.129971
0.0625,0.152503,0.104199,0.155364,0.109631
0.075,0.145446,0.0949588,0.153747,0.0982142
0.0875,0.140249,0.0898066,0.153524,0.0922395
0.1,0.136178,0.0872038,0.153635,0.0889375
0.1125,0.132836,0.0857355,0.15433,0.0875663
0.125,0.129829,0.0853262,0.15501,0.0873802
0.1375,0.127149,0.0852917,0.156623,0.0876049
0.15,0.125098,0.0854555,0.158597,0.0881754
0.1625,0.123888,0.0858177,0.161791,0.0887675
0.175,0.123688,0.0860566,0.166037,0.0894815
0.1875,0.124759,0.0864089,0.171325,0.0901044
0.2,0.12726,0.0867991,0.177863,0.0906119
0.2125,0.1312,0.0872165,0.185637,0.0910661
0.225,0.136451,0.0878192,0.193738,0.0913564
0.2375,0.142844,0.0885168,0.201881,0.0916552
0.25,0.15007,0.0892689,0.20987,0.0919433
0.2625,0.157814,0.0901569,0.217573,0.0923269
0.275,0.166183,0.0912614,0.225711,0.0928956
0.2875,0.175148,0.0925263,0.233755,0.0936381
0.3,0.184724,0.09384,0.24198,0.0945437
0.3125,0.195088,0.0950799,0.250542,0.0956059
0.325,0.206298,0.0963618,0.259188,0.0967544
0.3375,0.218185,0.097554,0.267891,0.0980423
0.35,0.230536,0.0987358,0.276311,0.0992288
0.3625,0.2431,0.0998169,0.284363,0.100312
0.375,0.255645,0.1009,0.291763,0.101304
0.3875,0.267962,0.102111,0.298696,0.102273
0.4,0.279893,0.103354,0.304671,0.103302
0.4125,0.291266,0.104568,0.309997,0.104381
0.425,0.302179,0.105749,0.315014,0.105502
0.4375,0.312912,0.106898,0.319648,0.106939
0.45,0.32343,0.108038,0.323995,0.108701
0.4625,0.333933,0.10923,0.328163,0.110467
0.475,0.344371,0.110324,0.331518,0.112282
0.4875,0.354458,0.111591,0.334665,0.114152
0.5,0.364056,0.112915,0.337381,0.115827
0.5125,0.373202,0.114206,0.340018,0.117412
0.525,0.382155,0.115516,0.342727,0.118741
0.5375,0.391075,0.116674,0.344804,0.119998
0.55,0.399849,0.117794,0.346325,0.121124
0.5625,0.408655,0.119025,0.347132,0.122278
0.575,0.417643,0.120272,0.347651,0.123455
0.5875,0.426918,0.12165,0.348288,0.12459
0.6,0.436307,0.12276,0.349125,0.12568
0.6125,0.445661,0.123794,0.350243,0.126829
0.625,0.454837,0.124648,0.351243,0.128138
0.6375,0.463663,0.125337,0.352038,0.129504
0.65,0.472328,0.125826,0.353314,0.131202
0.6625,0.480879,0.126165,0.354738,0.132692
0.675,0.489435,0.126713,0.356753,0.134214
0.6875,0.4983,0.127275,0.358797,0.135322
0.7,0.507754,0.128203,0.361435,0.136505
0.7125,0.517641,0.129235,0.363727,0.137452
0.725,0.527783,0.130512,0.365887,0.138275
0.7375,0.537811,0.131837,0.368108,0.139179
0.75,0.547673,0.133359,0.369876,0.139944
0.7625,0.557367,0.134812,0.37114,0.141153
0.775,0.56687,0.136238,0.371992,0.142332
0.7875,0.576112,0.137748,0.372757,0.143623
0.8,0.585055,0.139384,0.373356,0.144781
0.8125,0.593618,0.140993,0.37379,0.145782
0.825,0.601989,0.142674,0.373827,0.146571
0.8375,0.610243,0.144038,0.373702,0.147225
0.85,0.618259,0.145019,0.373898,0.148204
0.8625,0.626244,0.14605,0.374235,0.148892
0.875,0.634073,0.146928,0.37471,0.150056
0.8875,0.641832,0.14788,0.37414,0.150968
0.9,0.649537,0.148645,0.374455,0.152351
0.9125,0.657126,0.149269,0.373388,0.153555
0.925,0.664576,0.150138,0.372669,0.154634
0.9375,0.67201,0.151023,0.372199,0.155963
0.95,0.679101,0.15199,0.370745,0.157208
0.9625,0.685861,0.15361,0.372258,0.159315
0.975,0.69161,0.1539,0.369032,0.159801
0.9875,0.700707,0.158817,0.380172,0.164809
1,0.701701,0.160215,0.376957,0.165626
1.025,0.686475,0.153998,0.33922,0.158734
1.05,0.686691,0.157773,0.342531,0.162898
1.075,0.688123,0.160133,0.343684,0.165214
1.1,0.689755,0.160482,0.344114,0.165604
1.125,0.691468,0.160467,0.344238,0.165267
1.15,0.693419,0.161204,0.345411,0.165003
1.175,0.695248,0.162514,0.347565,0.16505
1.2,0.696264,0.164797,0.348379,0.165218
1.225,0.696235,0.167185,0.348985,0.165487
1.25,0.694772,0.168954,0.348382,0.166248
1.275,0.692012,0.170417,0.347705,0.166728
1.3,0.688477,0.171068,0.346783,0.166825
1.325,0.684406,0.170836,0.346005,0.167393
1.35,0.679757,0.170423,0.345045,0.16861
1.375,0.674595,0.169937,0.344618,0.169408
1.4,0.669093,0.170064,0.344759,0.169414
1.425,0.662987,0.170428,0.343568,0.16928
1.45,0.65639,0.171452,0.342852,0.169084
1.475,0.649051,0.172261,0.342718,0.169649
1.5,0.640819,0.172193,0.34397,0.169791
1.525,0.632832,0.172612,0.343708,0.170309
1.55,0.625497,0.172343,0.34247,0.171158
1.575,0.618315,0.17201,0.340849,0.171733
1.6,0.610652,0.172602,0.337988,0.172442
1.625,0.602697,0.173272,0.335016,0.172551
1.65,0.595164,0.174712,0.332914,0.172508
1.675,0.588246,0.176163,0.330291,0.17297
1.7,0.58164,0.176423,0.328301,0.172713
1.725,0.575049,0.177041,0.326572,0.172431
1.75,0.56882,0.17753,0.325408,0.17333
1.775,0.562574,0.176629,0.325188,0.173608
1.8,0.556244,0.175452,0.323711,0.17446
1.825,0.549986,0.174415,0.323866,0.17554
1.85,0.543756,0.173785,0.322657,0.17709
1.875,0.538123,0.173713,0.322199,0.177777
1.9,0.532416,0.174176,0.321985,0.177812
1.925,0.526988,0.175289,0.322254,0.178477
1.95,0.521311,0.176319,0.320254,0.179072
1.975,0.520899,0.182246,0.331021,0.183847
2,0.508304,0.178466,0.321397,0.177796