height(cm)_15O2_coarse,Radiative emission (kW/m)_15O2_coarse,height(cm)_15O2_medium,Radiative emission (kW/m)_15O2_medium,height(cm)_15O2_fine,Radiative emission (kW/m)_15O2_fine,height(cm)_17O2_coarse,Radiative emission (kW/m)_17O2_coarse,height(cm)_17O2_medium,Radiative emission (kW/m)_17O2_medium,height(cm)_17O2_fine,Radiative emission (kW/m)_17O2_fine,height(cm)_21O2_coarse,Radiative emission (kW/m)_21O2_coarse,height(cm)_21O2_medium,Radiative emission (kW/m)_21O2_medium,height(cm)_21O2_fine,Radiative emission (kW/m)_21O2_fine
0.416667,5.633424203,0.25,3.462746243,0.166667,2.689810625,0.416667,6.948071788,0.25,4.306847226,0.166667,3.209155696,0.416667,9.994473602,0.25,6.903160726,0.166667,5.040556221
1.25,5.664020969,0.75,3.570987042,0.5,2.769102263,1.25,6.935266256,0.75,4.424515149,0.5,3.30244504,1.25,9.984823428,0.75,7.000828565,0.5,5.163108951
2.08333,5.710195192,1.25,3.761786971,0.833333,2.907678404,2.08333,6.906855113,1.25,4.630897674,0.833333,3.465664662,2.08333,9.958540359,1.25,7.172621434,0.833333,5.375972511
2.91667,5.75071398,1.75,3.995184948,1.16667,3.074844411,2.91667,6.860852166,1.75,4.88108165,1.16667,3.662937589,2.91667,9.909646241,1.75,7.382403936,1.16667,5.630013273
3.75,5.769571417,2.25,4.232865253,1.5,3.241874851,3.75,6.800100325,2.25,5.132313263,1.5,3.860627542,3.75,9.84190585,2.25,7.596496082,1.5,5.879989974
4.58333,5.762852407,2.75,4.450046662,1.83333,3.390846584,4.58333,6.733263,2.75,5.35745375,1.83333,4.037691378,4.58333,9.770659947,2.75,7.794409028,1.83333,6.098885399
5.41667,5.738098432,3.25,4.638797271,2.16667,3.516346377,5.41667,6.672075452,3.25,5.548588838,2.16667,4.187730299,5.41667,9.716294736,3.25,7.971037503,2.16667,6.280309418
6.25,5.708559035,3.75,4.803968382,2.5,3.621716417,6.25,6.62701926,3.75,5.712192792,2.5,4.314612763,6.25,9.694418419,3.75,8.131855835,2.5,6.431811895
7.08333,5.686916543,4.25,4.956159482,2.83333,3.713783206,7.08333,6.604235838,4.25,5.860955899,2.83333,4.426258676,7.08333,9.709264043,4.25,8.285756676,2.83333,6.565807861
7.91667,5.681649953,4.75,5.105741361,3.16667,3.799065313,7.91667,6.604990703,4.75,6.006934104,3.16667,4.53013592,7.91667,9.753375109,4.75,8.439569624,3.16667,6.693219953
8.75,5.696486856,5.25,5.259686295,3.5,3.882253904,8.75,6.627095614,5.25,6.158023164,3.5,4.631463014,8.75,9.812195382,5.25,8.59582877,3.5,6.821158447
9.58333,5.731646105,5.75,5.420946649,3.83333,3.966257543,9.58333,6.666846208,5.75,6.31741051,3.83333,4.733312175,9.58333,9.870076143,5.75,8.753258204,3.83333,6.953339597
10.4167,5.785409889,6.25,5.589284121,4.16667,4.05281307,10.4167,6.720391408,6.25,6.484669099,4.16667,4.837418335,10.4167,9.914815788,6.25,8.908573154,4.16667,7.091410852
11.25,5.855125208,6.75,5.762437123,4.5,4.142940733,11.25,6.784177523,6.75,6.657179317,4.5,4.944817556,11.25,9.939439236,6.75,9.058239329,4.5,7.235949893
12.0833,5.937792721,7.25,5.93732813,4.83333,4.237348465,12.0833,6.854931214,7.25,6.831507918,4.83333,5.05636457,12.0833,9.942053153,7.25,9.199793286,4.83333,7.387181262
12.9167,6.030212544,7.75,6.11087227,5.16667,4.336575014,12.9167,6.929441795,7.75,7.004278921,5.16667,5.172896622,12.9167,9.924353081,7.75,9.33228932,5.16667,7.545175183
13.75,6.128880811,8.25,6.280339627,5.5,4.440907513,13.75,7.004386224,8.25,7.172522198,5.5,5.295099501,13.75,9.889640455,8.25,9.455985673,5.5,7.709656123
14.5833,6.23008396,8.75,6.443641294,5.83333,4.550447763,14.5833,7.076465218,8.75,7.333938549,5.83333,5.423499494,14.5833,9.841470026,8.75,9.571903566,5.83333,7.879986564
15.4167,6.330006764,9.25,6.599389172,6.16667,4.665112972,15.4167,7.142628614,9.25,7.486945461,6.16667,5.558386292,15.4167,9.782777407,9.25,9.681300216,6.16667,8.05510936
16.25,6.424884275,9.75,6.746845322,6.5,4.784624197,16.25,7.200312102,9.75,7.630629291,6.5,5.699738752,16.25,9.71555355,9.75,9.785288607,6.5,8.23351335
17.0833,6.511158786,10.25,6.885811759,6.83333,4.908489345,17.0833,7.24759585,10.25,7.764654595,6.83333,5.847167156,17.0833,9.640912482,10.25,9.884671209,6.83333,8.413244766
17.9167,6.585617391,10.75,7.016484696,7.16667,5.035987056,17.9167,7.283251566,10.75,7.889138278,7.16667,5.99987819,17.9167,9.559354051,10.75,9.979932708,7.16667,8.591966565
18.75,6.645498117,11.25,7.139300831,7.5,5.166165047,18.75,7.306685158,11.25,8.004500641,7.5,6.156672878,18.75,9.471055586,11.25,10.07131054,7.5,8.767070942
19.5833,6.688565572,11.75,7.254795947,7.83333,5.297865932,19.5833,7.317802016,11.75,8.111305734,7.83333,6.315988393,19.5833,9.376088843,11.75,10.15887202,7.83333,8.935847375
20.4167,6.713160407,12.25,7.363494171,8.16667,5.42978336,20.4167,7.316830585,12.25,8.21011368,8.16667,6.475986901,20.4167,9.274533103,12.25,10.24256435,8.16667,9.095695945
21.25,6.718227802,12.75,7.465837179,8.5,5.560541105,21.25,7.304143131,12.75,8.301371494,8.5,6.634680448,21.25,9.166501588,12.75,10.32223919,8.5,9.244358172
22.0833,6.703328032,13.25,7.562153262,8.83333,5.688782676,22.0833,7.280111985,13.25,8.385365182,8.83333,6.790069563,22.0833,9.052116377,13.25,10.39766898,8.83333,9.380124983
22.9167,6.668631753,13.75,7.652657354,9.16667,5.813259272,22.9167,7.245030927,13.75,8.462238516,9.16667,6.940271563,22.9167,8.931463258,13.75,10.46856909,9.16667,9.501979646
23.75,6.614901863,14.25,7.737468276,9.5,5.932906356,23.75,7.199109261,14.25,8.532061039,9.5,7.083621217,23.75,8.80454538,14.25,10.53462436,9.5,9.609645167
24.5833,6.543458558,14.75,7.816630262,9.83333,6.046900773,24.5833,7.142520433,14.75,8.594911742,9.83333,7.218738845,24.5833,8.671247263,14.75,10.59550595,9.83333,9.703529033
25.4167,6.456125625,15.25,7.890129498,10.1667,6.154691141,25.4167,7.075471373,15.25,8.650942411,10.1667,7.344569329,25.4167,8.531323489,15.25,10.65086718,10.1667,9.784584747
26.25,6.355152453,15.75,7.957901408,10.5,6.255997416,26.25,6.998258786,15.75,8.700396368,10.5,7.460398414,26.25,8.384421791,15.75,10.70032423,10.5,9.8541276
27.0833,6.243107411,16.25,8.019830162,10.8333,6.350780783,27.0833,6.911292661,16.25,8.743579522,10.8333,7.565850642,27.0833,8.230136728,16.25,10.74344594,10.8333,9.91364551
27.9167,6.122739603,16.75,8.075746695,11.1667,6.439191566,27.9167,6.815089012,16.75,8.780799593,11.1667,7.660869955,27.9167,8.068081884,16.75,10.77978247,11.1667,9.964637865
28.75,5.996813463,17.25,8.125432856,11.5,6.521506866,28.75,6.710244749,17.25,8.812300884,11.5,7.745682869,28.75,7.89795776,17.25,10.80894581,11.5,10.00850001
29.5833,5.8679327,17.75,8.168636631,11.8333,6.598069127,29.5833,6.597409787,17.75,8.838222397,11.8333,7.820745171,29.5833,7.719603048,17.75,10.8307276,11.8333,10.04645904
30.4167,5.73838284,18.25,8.205098277,12.1667,6.669233985,30.4167,6.477264315,18.25,8.858596076,12.1667,7.886675932,30.4167,7.533025849,18.25,10.84521144,12.1667,10.07955591
31.25,5.610023748,18.75,8.234581685,12.5,6.735332217,31.25,6.350499713,18.75,8.873386591,12.5,7.944185521,31.25,7.338422326,18.75,10.85283362,12.5,10.10866118
32.0833,5.484250825,19.25,8.256904168,12.8333,6.796648546,32.0833,6.217800841,19.25,8.882557264,12.8333,7.994006564,32.0833,7.136188429,19.25,10.85435825,12.8333,10.13450417
32.9167,5.36202027,19.75,8.271960037,13.1667,6.853417975,32.9167,6.079829592,19.75,8.886137377,13.1667,8.036837477,32.9167,6.926925838,19.75,10.85075828,13.1667,10.15769572
33.75,5.243912524,20.25,8.279737307,13.5,6.905836612,33.75,5.937210339,20.25,8.884266482,13.5,8.073306587,33.75,6.71143514,20.25,10.84301766,13.5,10.17873465
34.5833,5.130200255,20.75,8.280330155,13.8333,6.954080028,34.5833,5.790515732,20.75,8.877200446,13.8333,8.103960814,34.5833,6.490684963,20.75,10.83189029,13.8333,10.19800369
35.4167,5.020901245,21.25,8.273950161,14.1667,6.998319545,35.4167,5.640254268,21.25,8.865279961,14.1667,8.129277952,35.4167,6.265751509,21.25,10.81767282,14.1667,10.21576845
36.25,4.915814581,21.75,8.260936401,14.5,7.038729089,36.25,5.48686654,21.75,8.848875719,14.5,8.149695202,36.25,6.037737338,21.75,10.80006099,14.5,10.23219032
37.0833,4.814555843,22.25,8.241760243,14.8333,7.075481668,37.0833,5.330738156,22.25,8.82833214,14.8333,8.165642722,37.0833,5.807694955,22.25,10.77814843,14.8333,10.24735406
37.9167,4.716605891,22.75,8.217015619,15.1667,7.108742127,37.9167,5.172227135,22.75,8.80392883,15.1667,8.177569218,37.9167,5.576581807,22.75,10.7505835,15.1667,10.26130253
38.75,4.621377645,23.25,8.187386386,15.5,7.138666053,38.75,5.01168823,23.25,8.775868716,15.5,8.185950431,38.75,5.345257548,23.25,10.71584014,15.5,10.27406765
39.5833,4.528288769,23.75,8.153589306,15.8333,7.165410582,39.5833,4.849476622,23.75,8.744286025,15.8333,8.191278831,39.5833,5.114514412,23.75,10.67251592,15.8333,10.28568961
40.4167,4.436821022,24.25,8.116304287,16.1667,7.189154562,40.4167,4.685928844,24.25,8.709258567,16.1667,8.194040715,40.4167,4.885117737,24.25,10.61956497,16.1667,10.29621807
41.25,4.346550053,24.75,8.076112146,16.5,7.210118754,41.25,4.52133978,24.75,8.670811104,16.5,8.194691237,41.25,4.657834686,24.75,10.55640916,16.5,10.30569385
42.0833,4.257144137,25.25,8.033459951,16.8333,7.228575439,42.0833,4.355957578,25.25,8.628907891,16.8333,8.193637404,42.0833,4.433442954,25.25,10.4829179,16.8333,10.31411402
42.9167,4.168346378,25.75,7.988660288,17.1667,7.244842366,42.9167,4.190005888,25.75,8.583443952,17.1667,8.191233693,42.9167,4.212723262,25.75,10.39929211,17.1667,10.32139228
43.75,4.079958328,26.25,7.941914048,17.5,7.259262464,43.75,4.023728433,26.25,8.534252339,17.5,8.187787647,43.75,3.996443115,26.25,10.30591144,17.5,10.32733138
44.5833,3.991832108,26.75,7.893337112,17.8333,7.272175723,44.5833,3.857443149,26.75,8.481137805,17.8333,8.183568636,44.5833,3.785334859,26.75,10.20320842,17.8333,10.33162321
45.4167,3.903863226,27.25,7.842975324,18.1667,7.28389038,45.4167,3.691588244,27.25,8.423926765,18.1667,8.178812794,45.4167,3.580070475,27.25,10.09161073,18.1667,10.33388237
46.25,3.815973032,27.75,7.790805651,18.5,7.294659239,46.25,3.526739447,27.75,8.362508066,18.5,8.173719928,46.25,3.381234589,27.75,9.971551339,18.5,10.33370503
47.0833,3.72808291,28.25,7.736733131,18.8333,7.30466392,47.0833,3.363583248,28.25,8.296841137,18.8333,8.168442965,47.0833,3.189303041,28.25,9.843511418,18.8333,10.33073766
47.9167,3.6400979,28.75,7.680591843,19.1667,7.314008028,47.9167,3.202848847,28.75,8.226926269,19.1667,8.163074465,47.9167,3.004633083,28.75,9.708051617,19.1667,10.32473875
48.75,3.551916602,29.25,7.622151567,19.5,7.322718771,48.75,3.045227373,29.25,8.152753945,19.5,8.157636542,48.75,2.827466248,29.25,9.565810213,19.5,10.31562277
49.5833,3.463464766,29.75,7.561126286,19.8333,7.330756416,49.5833,2.891315782,29.75,8.074257826,19.8333,8.152079108,49.5833,2.657941118,29.75,9.417473578,19.8333,10.30348152
50.4167,3.374728491,30.25,7.497184842,20.1667,7.338030839,50.4167,2.741602843,30.25,7.991289059,20.1667,8.146287186,50.4167,2.49611103,30.25,9.26373643,20.1667,10.28857825
51.25,3.285761472,30.75,7.429970863,20.5,7.34442302,51.25,2.596486137,30.75,7.90361722,20.5,8.140094282,51.25,2.341964228,30.75,9.105263597,20.5,10.27131203
52.0833,3.19666335,31.25,7.359140172,20.8333,7.349807769,52.0833,2.456292629,31.25,7.810954233,20.8333,8.133298208,52.0833,2.195443423,31.25,8.942654697,20.8333,10.25215577
52.9167,3.107549298,31.75,7.284410922,21.1667,7.354071763,52.9167,2.321284197,31.75,7.712994615,21.1667,8.125678491,52.9167,2.056461677,31.75,8.77641536,21.1667,10.23158276
53.75,3.018535201,32.25,7.205608651,21.5,7.357122384,53.75,2.19165049,32.25,7.609462271,21.5,8.117017101,53.75,1.92490936,32.25,8.606942109,21.5,10.21000217
54.5833,2.929744263,32.75,7.122686893,21.8333,7.358885775,54.5833,2.067501784,32.75,7.500152184,21.8333,8.107121118,54.5833,1.800650751,32.75,8.434526539,21.8333,10.18771831
55.4167,2.841319922,33.25,7.035716937,22.1667,7.359295193,55.4167,1.948871614,33.25,7.384957427,22.1667,8.095839347,55.4167,1.683515408,33.25,8.259378865,22.1667,10.16491322
56.25,2.753426787,33.75,6.944856512,22.5,7.358272938,56.25,1.835728733,33.75,7.263880761,22.5,8.083061787,56.25,1.573291956,33.75,8.081662779,22.5,10.14164273
57.0833,2.666237095,34.25,6.850311354,22.8333,7.355710173,57.0833,1.727992235,34.25,7.137039958,22.8333,8.068697505,57.0833,1.4697306,34.25,7.901533267,22.8333,10.11783585
57.9167,2.579915286,34.75,6.752300249,23.1667,7.351449553,57.9167,1.62554479,34.75,7.004677319,23.1667,8.052640905,57.9167,1.372553218,34.75,7.719169613,23.1667,10.09329514
58.75,2.494612852,35.25,6.651030908,23.5,7.345276324,58.75,1.528244991,35.25,6.86717564,23.5,8.034747398,58.75,1.281467776,35.25,7.534798716,23.5,10.06769945
59.5833,2.410472297,35.75,6.546692458,23.8333,7.336922183,59.5833,1.435940754,35.75,6.725070423,23.8333,8.01483594,59.5833,1.196182793,35.75,7.348708814,23.8333,10.04060974
60.4167,2.327631576,36.25,6.439466234,24.1667,7.326083331,60.4167,1.348483154,36.25,6.579041956,24.1667,7.992719612,60.4167,1.116418757,36.25,7.161260931,24.1667,10.01147912
61.25,2.246221717,36.75,6.329544572,24.5,7.312450039,61.25,1.265736649,36.75,6.429876078,24.5,7.968248229,61.25,1.041914634,36.75,6.972902929,24.5,9.979672404
62.0833,2.16635877,37.25,6.217138491,24.8333,7.295742798,62.0833,1.187579916,37.25,6.278397778,24.8333,7.941341575,62.0833,0.972427657,37.25,6.784179646,24.8333,9.944504461
62.9167,2.088135216,37.75,6.102460117,25.1667,7.275748846,62.9167,1.113896592,37.75,6.125397084,25.1667,7.911999288,62.9167,0.907726763,37.75,6.595720429,25.1667,9.905301649
63.75,2.011614084,38.25,5.985686756,25.5,7.252352462,63.75,1.044562636,38.25,5.971569744,25.5,7.880287753,63.75,0.847582649,38.25,6.408187673,25.5,9.861476567
64.5833,1.936826952,38.75,5.866932263,25.8333,7.225553297,64.5833,0.979437928,38.75,5.817483855,25.8333,7.846313455,64.5833,0.791758103,38.75,6.222196053,25.8333,9.812595827
65.4167,1.863776957,39.25,5.746249828,26.1667,7.195467932,65.4167,0.918366922,39.25,5.663571238,26.1667,7.810193773,65.4167,0.740001744,39.25,6.03823706,26.1667,9.758418861
66.25,1.7924473,39.75,5.623668492,26.5,7.162313018,66.25,0.861185175,39.75,5.510137925,26.5,7.772032342,66.25,0.692046993,39.75,5.856649845,26.5,9.698896243
67.0833,1.722812976,40.25,5.499242932,26.8333,7.126372126,67.0833,0.807724938,40.25,5.357390715,26.8333,7.731902322,67.0833,0.647616885,40.25,5.677654942,26.8333,9.634131342
67.9167,1.654850767,40.75,5.373091565,27.1667,7.087952515,67.9167,0.757815785,40.75,5.205477797,27.1667,7.689836827,67.9167,0.606433474,40.75,5.501431097,27.1667,9.564321454
68.75,1.58854355,41.25,5.245412827,27.5,7.047340509,68.75,0.711281579,41.25,5.054537377,27.5,7.645824596,68.75,0.568229247,41.25,5.328192245,27.5,9.489699614
69.5833,1.523880496,41.75,5.116484601,27.8333,7.004764853,69.5833,0.667937312,41.75,4.904741312,27.8333,7.599808892,69.5833,0.53275669,41.75,5.158226338,27.8333,9.41049158
70.4167,1.460857354,42.25,4.986656836,28.1667,6.960376005,70.4167,0.62758876,42.25,4.756320195,28.1667,7.551690445,70.4167,0.49979361,42.25,4.991883346,28.1667,9.326891005
71.25,1.399477812,42.75,4.856340484,28.5,6.914245828,71.25,0.590035702,42.75,4.609564118,28.5,7.501337601,71.25,0.469143641,42.75,4.829527178,28.5,9.239046838
72.0833,1.339752971,43.25,4.725990446,28.8333,6.866386769,72.0833,0.555077813,43.25,4.464804178,28.8333,7.448606579,72.0833,0.440634093,43.25,4.671480667,28.8333,9.147056882
72.9167,1.281696142,43.75,4.596080658,29.1667,6.816783512,72.9167,0.52252146,43.75,4.322386169,29.1667,7.393369171,72.9167,0.414112689,43.75,4.517989417,29.1667,9.050968226
73.75,1.22531576,44.25,4.467076379,29.5,6.765426345,73.75,0.49218493,44.25,4.18264613,29.5,7.335538659,73.75,0.389444258,44.25,4.369212461,29.5,8.950790342
74.5833,1.170612096,44.75,4.33941068,29.8333,6.712336113,74.5833,0.463900153,44.75,4.045892347,29.8333,7.275083853,74.5833,0.366507232,44.75,4.225232485,29.8333,8.846524855
75.4167,1.11758119,45.25,4.213469964,30.1667,6.657576305,75.4167,0.437511239,45.25,3.912393281,30.1667,7.212028839,75.4167,0.345189963,45.25,4.086070654,30.1667,8.7382082
76.25,1.066223974,45.75,4.089587365,30.5,6.601255076,76.25,0.412872318,45.75,3.782369149,30.5,7.146444571,76.25,0.325387302,45.75,3.951694989,30.5,8.625955018
77.0833,1.016554579,46.25,3.968039109,30.8333,6.543523411,77.0833,0.389847226,46.25,3.655985435,30.8333,7.078441438,77.0833,0.306998434,46.25,3.822022656,30.8333,8.509989349
77.9167,0.968602355,46.75,3.849039851,31.1667,6.484572912,77.9167,0.368311078,46.75,3.5333496,31.1667,7.008166979,77.9167,0.289925785,46.75,3.696924282,31.1667,8.390655048
78.75,0.922406448,47.25,3.732736583,31.5,6.424631103,78.75,0.348151383,47.25,3.414513521,31.5,6.935805711,78.75,0.274074463,47.25,3.576238819,31.5,8.268404053
79.5833,0.878005697,47.75,3.619205319,31.8333,6.363948106,79.5833,0.329266837,47.75,3.299481903,31.8333,6.861574972,79.5833,0.259351955,47.75,3.45979718,31.8333,8.143766827
80.4167,0.835427353,48.25,3.508457126,32.1667,6.302771769,80.4167,0.311564329,48.25,3.188224169,32.1667,6.785713772,80.4167,0.245668153,48.25,3.34744403,32.1667,8.017311906
81.25,0.794677373,48.75,3.400456827,32.5,6.241316285,81.25,0.294956471,48.75,3.080685546,32.5,6.708466939,81.25,0.232936259,48.75,3.239047116,32.5,7.889602065
82.0833,0.755735176,49.25,3.295150547,32.8333,6.179735742,82.0833,0.279361727,49.25,2.976795065,32.8333,6.630070442,82.0833,0.221074609,49.25,3.134494842,32.8333,7.761152071
82.9167,0.718555082,49.75,3.192491551,33.1667,6.11811315,82.9167,0.264706807,49.75,2.876470441,33.1667,6.550743216,82.9167,0.210008611,49.75,3.033692045,33.1667,7.632391168
83.75,0.683074313,50.25,3.092454559,33.5,6.056467416,83.75,0.250929301,50.25,2.779620766,33.5,6.470687032,83.75,0.199671801,50.25,2.936562263,33.5,7.503632968
84.5833,0.649224236,50.75,2.995035959,33.8333,5.994770042,84.5833,0.237978489,50.75,2.686146556,33.8333,6.390090329,84.5833,0.190005783,50.75,2.843052116,33.8333,7.375058209
85.4167,0.616939398,51.25,2.900246021,34.1667,5.93296023,85.4167,0.225813631,51.25,2.595936763,34.1667,6.309129023,85.4167,0.180959526,51.25,2.753125552,34.1667,7.246717923
86.25,0.586160898,51.75,2.808101612,34.5,5.870953466,86.25,0.214400367,51.75,2.508864949,34.5,6.227959962,86.25,0.172488649,51.75,2.666742826,34.5,7.118561922
87.0833,0.55683473,52.25,2.718622697,34.8333,5.808648818,87.0833,0.203706817,52.25,2.424790018,34.8333,6.146710868,87.0833,0.164554503,52.25,2.583834686,34.8333,6.990487707
87.9167,0.528908809,52.75,2.631828904,35.1667,5.745944276,87.9167,0.19370071,52.75,2.34356488,35.1667,6.065476767,87.9167,0.15712282,52.75,2.504288625,35.1667,6.862395098
88.75,0.502332011,53.25,2.547730789,35.5,5.682762869,88.75,0.184348071,53.25,2.26504976,35.5,5.984330395,88.75,0.150162149,53.25,2.427955701,35.5,6.734228434
89.5833,0.477055518,53.75,2.466315511,35.8333,5.619080931,89.5833,0.175613076,53.75,2.189121123,35.8333,5.903343688,89.5833,0.143642607,53.75,2.354670677,35.8333,6.605997206
90.4167,0.453044277,54.25,2.387533123,36.1667,5.554943339,90.4167,0.167462776,54.25,2.115669757,36.1667,5.822607194,90.4167,0.137539153,54.25,2.284268694,36.1667,6.477779089
91.25,0.430270232,54.75,2.31129229,36.5,5.490455524,91.25,0.159864873,54.75,2.044590766,36.5,5.742234093,91.25,0.131829528,54.75,2.216588043,36.5,6.349716729
92.0833,0.408739606,55.25,2.237470005,36.8333,5.425755284,92.0833,0.152801203,55.25,1.975775411,36.8333,5.66234681,92.0833,0.126506005,55.25,2.151461205,36.8333,6.222015937
92.9167,0.388525008,55.75,2.165931828,37.1667,5.360978568,92.9167,0.146284577,55.75,1.909112614,37.1667,5.583055496,92.9167,0.121589831,55.75,2.088704775,37.1667,6.094941704
93.75,0.369827262,56.25,2.096553495,37.5,5.296235289,93.75,0.140389528,56.25,1.844499164,37.5,5.504442539,93.75,0.117157876,56.25,2.028117962,37.5,5.968803482
94.5833,0.353050442,56.75,2.029234492,37.8333,5.231602538,94.5833,0.135290613,56.75,1.781850476,37.8333,5.426560301,94.5833,0.113376476,56.75,1.969493112,37.8333,5.843927261
95.4167,0.338841563,57.25,1.963900343,38.1667,5.167130951,95.4167,0.131286955,57.25,1.721105101,38.1667,5.3494383,95.4167,0.110524153,57.25,1.912633569,38.1667,5.720622373
96.25,0.328007266,57.75,1.90049643,38.5,5.102853501,96.25,0.128772821,57.75,1.662222298,38.5,5.273089445,96.25,0.108967622,57.75,1.857371575,38.5,5.599157132
