x (m),R4,R5,R6,R7,R8
-0.5,9.23E-06,8.72E-08,5.34E-06,3.74E-05,8.23E-10
-0.49,6.13E-05,3.58E-06,4.76E-05,0.00035552,1.50E-06
-0.48,0.00011333,1.55E-05,0.00020448,0.0010382,5.59E-05
-0.47,0.00016539,8.64E-05,0.0004868,0.0017566,0.00055111
-0.46,0.00029528,0.00022133,0.00091881,0.0026169,0.0019252
-0.45,0.00065868,0.00054835,0.0015684,0.0040679,0.0033071
-0.44,0.0010221,0.0010397,0.0026159,0.0062379,0.0048093
-0.43,0.0013855,0.0018049,0.0038366,0.0084623,0.0066601
-0.42,0.0020697,0.0030274,0.0053453,0.010494,0.0090386
-0.41,0.0030747,0.004707,0.0073901,0.012923,0.012582
-0.4,0.0040797,0.0070956,0.010444,0.016531,0.016837
-0.39,0.0051132,0.0099487,0.014271,0.021259,0.021366
-0.38,0.0068298,0.013738,0.01889,0.025977,0.026407
-0.37,0.0088218,0.017927,0.024146,0.030126,0.031957
-0.36,0.010814,0.022374,0.029676,0.035043,0.03848
-0.35,0.012878,0.026857,0.034924,0.041009,0.044758
-0.34,0.015411,0.031138,0.03991,0.047115,0.050585
-0.33,0.018017,0.035353,0.045254,0.053136,0.056995
-0.32,0.020622,0.039419,0.051347,0.058815,0.064354
-0.31,0.023471,0.04337,0.058063,0.063965,0.072293
-0.3,0.02705,0.047007,0.06475,0.069304,0.079712
-0.29,0.03063,0.050528,0.070722,0.075306,0.085743
-0.28,0.034209,0.053776,0.075989,0.082434,0.090666
-0.27,0.038764,0.05739,0.080812,0.089897,0.094725
-0.26,0.045182,0.061702,0.085446,0.096601,0.09838
-0.25,0.051601,0.066584,0.090425,0.10226,0.10331
-0.24,0.058019,0.072354,0.096161,0.10659,0.10956
-0.23,0.066043,0.07824,0.10237,0.10989,0.1159
-0.22,0.076132,0.084275,0.10881,0.11312,0.12147
-0.21,0.086221,0.090324,0.115,0.1176,0.12805
-0.2,0.096309,0.096389,0.12107,0.12306,0.13558
-0.19,0.10944,0.10277,0.12723,0.12863,0.14276
-0.18,0.12526,0.10944,0.1338,0.13408,0.14988
-0.17,0.14108,0.1173,0.14124,0.1404,0.15659
-0.16,0.15691,0.12603,0.15037,0.14818,0.16437
-0.15,0.1772,0.13808,0.16069,0.15715,0.17203
-0.14,0.20017,0.15212,0.17169,0.16651,0.18012
-0.13,0.22314,0.16856,0.18297,0.17535,0.18824
-0.12,0.24611,0.18618,0.19505,0.18449,0.19733
-0.11,0.27727,0.2018,0.21076,0.19443,0.20843
-0.1,0.31163,0.21664,0.23089,0.2077,0.21945
-0.09,0.34599,0.22835,0.25482,0.22531,0.23134
-0.08,0.38034,0.23911,0.27658,0.24169,0.2421
-0.07,0.41032,0.24612,0.29298,0.25502,0.24883
-0.06,0.43929,0.25227,0.30625,0.26502,0.25955
-0.05,0.46825,0.25499,0.31693,0.27263,0.27078
-0.04,0.49721,0.25715,0.32512,0.27977,0.27817
-0.03,0.50028,0.25602,0.33278,0.28737,0.28505
-0.02,0.50066,0.25454,0.33699,0.29455,0.29203
-0.01,0.50104,0.25823,0.33782,0.29725,0.29742
0,0.50142,0.26217,0.33609,0.29667,0.30069
0.01,0.48925,0.27033,0.33353,0.29227,0.29581
0.02,0.47708,0.27848,0.32598,0.28742,0.28859
0.03,0.46491,0.28638,0.31433,0.28699,0.28082
0.04,0.4517,0.29339,0.29976,0.28575,0.27584
0.05,0.42846,0.2918,0.28466,0.27925,0.26896
0.06,0.40521,0.28889,0.27233,0.26827,0.25553
0.07,0.38197,0.27794,0.26005,0.25519,0.24073
0.08,0.35807,0.2669,0.24656,0.24014,0.2246
0.09,0.33131,0.25551,0.23127,0.22419,0.20938
0.1,0.30455,0.24431,0.21396,0.21511,0.19475
0.11,0.27779,0.23378,0.19681,0.20738,0.18204
0.12,0.25248,0.22237,0.18064,0.19697,0.17261
0.13,0.23091,0.20869,0.16613,0.18582,0.16425
0.14,0.20933,0.19474,0.15411,0.17652,0.15679
0.15,0.18776,0.18025,0.14374,0.17003,0.15084
0.16,0.16761,0.16683,0.13488,0.16455,0.14551
0.17,0.14985,0.15523,0.1273,0.15834,0.14175
0.18,0.13208,0.14383,0.11945,0.15137,0.13798
0.19,0.11432,0.13273,0.11266,0.14366,0.13229
0.2,0.099689,0.12143,0.10696,0.13539,0.12767
0.21,0.088621,0.10991,0.102,0.12654,0.12514
0.22,0.077554,0.099133,0.096785,0.11764,0.12352
0.23,0.066486,0.089057,0.091591,0.10927,0.1208
0.24,0.058689,0.080284,0.086803,0.10179,0.11444
0.25,0.053436,0.072522,0.082553,0.095089,0.10511
0.26,0.048183,0.065271,0.078959,0.089122,0.095953
0.27,0.04293,0.058347,0.075464,0.084008,0.089299
0.28,0.03903,0.052112,0.071682,0.079883,0.084361
0.29,0.03584,0.046238,0.067579,0.075981,0.079257
0.3,0.032649,0.040606,0.063081,0.071754,0.073555
0.31,0.029458,0.035075,0.058077,0.067387,0.067879
0.32,0.026266,0.029692,0.052756,0.061989,0.063608
0.33,0.023072,0.024395,0.047193,0.055663,0.059454
0.34,0.019879,0.019637,0.04138,0.049321,0.054707
0.35,0.016777,0.015194,0.035352,0.04307,0.049088
0.36,0.014271,0.01197,0.029588,0.036791,0.042185
0.37,0.011857,0.0091589,0.024179,0.030314,0.035153
0.38,0.0094436,0.0071997,0.019363,0.024129,0.029618
0.39,0.0073008,0.0053736,0.015429,0.01865,0.02463
0.4,0.0058304,0.0036821,0.012494,0.013665,0.01974
0.41,0.0043881,0.0022249,0.0098699,0.0097854,0.014688
0.42,0.0029458,0.0011488,0.0073222,0.0070911,0.010409
0.43,0.0019615,0.00046609,0.0049813,0.0048992,0.0078819
0.44,0.0014353,0.00017671,0.0030654,0.0029002,0.0064316
0.45,0.000909,4.66E-05,0.0017868,0.001323,0.0047949
0.46,0.00038274,1.21E-05,0.0013064,0.00047027,0.0030064
0.47,0.00020301,2.15E-06,0.0010811,0.00010327,0.0015883
0.48,0.00013881,3.28E-07,0.00091106,9.35E-06,0.00079159
0.49,7.46E-05,5.50E-08,0.00069739,2.58E-07,0.00025712
0.5,1.04E-05,3.02E-09,0.00039575,1.00E-09,2.74E-05
